{
  "AcquisitionMatrixPE": 88,
  "AcquisitionNumber": 1,
  "AcquisitionTime": "15:17:9.312500",
  "BandwidthPerPixelPhaseEncode": 34.965,
  "BaseResolution": 88,
  "BodyPartExamined": "BRAIN",
  "ConsistencyInfo": "N4_VE11C_LATEST_20160120",
  "ConversionSoftware": "dcm2niix",
  "ConversionSoftwareVersion": "v1.0.20190720  GCC5.4.0",
  "DerivedVendorReportedEchoSpacing": 0.000650001,
  "DeviceSerialNumber": "67007",
  "DwellTime": 3.1e-06,
  "EchoTime": 0.039,
  "EchoTrainLength": 32,
  "EffectiveEchoSpacing": 0.000325,
  "FlipAngle": 50,
  "ImageComments": "Unaliased_MB4_PE4",
  "ImageOrientationPatientDICOM": [0.999342, -0.0117959, -0.0342881, -1.01225e-08, 0.945607, -0.325311],
  "ImageType": [
    "ORIGINAL",
    "PRIMARY",
    "M",
    "MB",
    "ND",
    "NORM",
    "MOSAIC"
],
  "ImagingFrequency": 123.22,
  "InPlanePhaseEncodingDirectionDICOM": "COL",
  "InstitutionAddress": "Perth_Drive_100_London_Ontario_CA_N6A_5K8",
  "InstitutionName": "Robarts_Research_Institute",
  "InstitutionalDepartmentName": "CFMM",
  "MRAcquisitionType": "2D",
  "MagneticFieldStrength": 3,
  "Manufacturer": "Siemens",
  "ManufacturersModelName": "Prisma_fit",
  "Modality": "MR",
  "MultibandAccelerationFactor": 4,
  "ParallelReductionFactorInPlane": 2,
  "PartialFourier": 0.75,
  "PatientPosition": "HFS",
  "PercentPhaseFOV": 100,
  "PhaseEncodingDirection": "j-",
  "PhaseEncodingSteps": 65,
  "PhaseResolution": 1,
  "PixelBandwidth": 1835,
  "ProcedureStepDescription": "Burneo_EpLinkPhase3",
  "ProtocolName": "ep_bold_mb4_p2_2.5iso_rest",
  "PulseSequenceDetails": "%CustomerSeq%_cmrr_mbep2d_bold",
  "ReceiveCoilActiveElements": "HEA;HEP",
  "ReceiveCoilName": "Head_32",
  "ReconMatrixPE": 88,
  "RefLinesPE": 24,
  "RepetitionTime": 1.25,
  "SAR": 0.087576,
  "ScanOptions": "PFP_FS_EXT",
  "ScanningSequence": "EP",
  "SequenceName": "epfid2d1_88",
  "SequenceVariant": "SK_SS",
  "SeriesDescription": "ep_bold_mb4_p2_2.5iso_rest",
  "SeriesNumber": 13,
  "ShimSetting": [5206, -6390, -4029, 242, 127, 305, -3, -37],
  "SliceThickness": 2.5,
  "SliceTiming": [0, 0.655, 0.0825, 0.7375, 0.165, 0.82, 0.245, 0.9025, 0.3275, 0.985, 0.41, 1.065, 0.4925, 1.1475, 0.575, 0, 0.655, 0.0825, 0.7375, 0.165, 0.82, 0.245, 0.9025, 0.3275, 0.985, 0.41, 1.065, 0.4925, 1.1475, 0.575, 0, 0.655, 0.0825, 0.7375, 0.165, 0.82, 0.245, 0.9025, 0.3275, 0.985, 0.41, 1.065, 0.4925, 1.1475, 0.575, 0, 0.655, 0.0825, 0.7375, 0.165, 0.82, 0.245, 0.9025, 0.3275, 0.985, 0.41, 1.065, 0.4925, 1.1475, 0.575],
  "SoftwareVersions": "syngo_MR_E11",
  "SpacingBetweenSlices": 2.5,
  "StationName": "MRC35368",
  "TaskName": "rest",
  "TotalReadoutTime": 0.028275,
  "TxRefAmp": 285.725,
  "WipMemBlock": "ba61d81f-682d-4d2e-b4fa-c165e3e34fb6||Sequence: R016 ve11c/master r/e634e98; Dec 19 2017 11:00:25 by eja",
  "dcmmeta_affine": [
    [-2.4983558654785156, -2.5306247763978718e-08, -0.09065098315477371, 120.8086929321289],
    [0.02948976308107376, 2.3640174865722656, -0.8127433657646179, -65.00215911865234],
    [-0.08572021126747131, 0.8132781982421875, 2.3624627590179443, -140.3008575439453],
    [0.0, 0.0, 0.0, 1.0]
],
  "dcmmeta_reorient_transform": [
    [0.0, -1.0, 0.0, 87.0],
    [1.0, 0.0, 0.0, 0.0],
    [0.0, 0.0, 1.0, 0.0],
    [0.0, 0.0, 0.0, 1.0]
],
  "dcmmeta_shape": [88, 88, 60, 384],
  "dcmmeta_slice_dim": 2,
  "dcmmeta_version": 0.6,
  "global": {
    "const": {
      "AcquisitionMatrix": [88, 0, 0, 88],
      "AngioFlag": "N",
      "BitsAllocated": 16,
      "BitsStored": 16,
      "BodyPartExamined": "BRAIN",
      "CardiacNumberOfImages": 1,
      "Columns": 704,
      "EchoNumbers": 1,
      "EchoTime": 39.0,
      "EchoTrainLength": 32,
      "FlipAngle": 50.0,
      "HighBit": 15,
      "ImageOrientationPatient": [0.99934237568708, -0.0117959052708, -0.0342880850288, -1.0122499e-08, 0.9456069881319, -0.3253112724701],
      "ImagePositionPatient": [-890.30230987219, -859.70189210842, 207.34585684022],
      "ImageType": [
        "ORIGINAL",
        "PRIMARY",
        "M",
        "MB",
        "ND",
        "NORM",
        "MOSAIC"
],
      "ImagedNucleus": "1H",
      "ImagingFrequency": 123.219569,
      "InPlanePhaseEncodingDirection": "COL",
      "MRAcquisitionType": "2D",
      "MagneticFieldStrength": 3.0,
      "Manufacturer": "SIEMENS",
      "ManufacturerModelName": "Prisma_fit",
      "Modality": "MR",
      "NominalInterval": 0,
      "NumberOfAverages": 1.0,
      "NumberOfPhaseEncodingSteps": 65,
      "PercentPhaseFieldOfView": 100.0,
      "PercentSampling": 100.0,
      "PerformedProcedureStepStartTime": "142553.264000",
      "PhotometricInterpretation": "MONOCHROME2",
      "PixelBandwidth": 1835.0,
      "PixelRepresentation": 0,
      "PixelSpacing": [2.5, 2.5],
      "ProtocolName": "ep_bold_mb4_p2_2.5iso_rest",
      "RepetitionTime": 1250.0,
      "Rows": 704,
      "SAR": 0.08757600829089,
      "SamplesPerPixel": 1,
      "ScanOptions": [
        "PFP",
        "FS",
        "EXT"
],
      "ScanningSequence": "EP",
      "SequenceName": "epfid2d1_88",
      "SequenceVariant": [
        "SK",
        "SS"
],
      "SeriesDescription": "ep_bold_mb4_p2_2.5iso_rest",
      "SeriesNumber": 13,
      "SeriesTime": "151739.842000",
      "SliceLocation": -115.83075854667,
      "SliceThickness": 2.5,
      "SmallestImagePixelValue": 0,
      "SoftwareVersions": "syngo MR E11",
      "SpacingBetweenSlices": 2.5000000097589,
      "SpecificCharacterSet": "ISO_IR 100",
      "StudyID": "1",
      "StudyTime": "142553.203000",
      "TransmitCoilName": "Body",
      "VariableFlipAngleFlag": "N",
      "WindowCenterWidthExplanation": "Algo1",
      "dBdt": 0.0},
    "slices": {}
  },
  "time": {
    "samples": {
      "AcquisitionNumber": [1, 2, 3, 4, 5, 6, 7, 8, 9, 10, 11, 12, 13, 14, 15, 16, 17, 18, 19, 20, 21, 22, 23, 24, 25, 26, 27, 28, 29, 30, 31, 32, 33, 34, 35, 36, 37, 38, 39, 40, 41, 42, 43, 44, 45, 46, 47, 48, 49, 50, 51, 52, 53, 54, 55, 56, 57, 58, 59, 60, 61, 62, 63, 64, 65, 66, 67, 68, 69, 70, 71, 72, 73, 74, 75, 76, 77, 78, 79, 80, 81, 82, 83, 84, 85, 86, 87, 88, 89, 90, 91, 92, 93, 94, 95, 96, 97, 98, 99, 100, 101, 102, 103, 104, 105, 106, 107, 108, 109, 110, 111, 112, 113, 114, 115, 116, 117, 118, 119, 120, 121, 122, 123, 124, 125, 126, 127, 128, 129, 130, 131, 132, 133, 134, 135, 136, 137, 138, 139, 140, 141, 142, 143, 144, 145, 146, 147, 148, 149, 150, 151, 152, 153, 154, 155, 156, 157, 158, 159, 160, 161, 162, 163, 164, 165, 166, 167, 168, 169, 170, 171, 172, 173, 174, 175, 176, 177, 178, 179, 180, 181, 182, 183, 184, 185, 186, 187, 188, 189, 190, 191, 192, 193, 194, 195, 196, 197, 198, 199, 200, 201, 202, 203, 204, 205, 206, 207, 208, 209, 210, 211, 212, 213, 214, 215, 216, 217, 218, 219, 220, 221, 222, 223, 224, 225, 226, 227, 228, 229, 230, 231, 232, 233, 234, 235, 236, 237, 238, 239, 240, 241, 242, 243, 244, 245, 246, 247, 248, 249, 250, 251, 252, 253, 254, 255, 256, 257, 258, 259, 260, 261, 262, 263, 264, 265, 266, 267, 268, 269, 270, 271, 272, 273, 274, 275, 276, 277, 278, 279, 280, 281, 282, 283, 284, 285, 286, 287, 288, 289, 290, 291, 292, 293, 294, 295, 296, 297, 298, 299, 300, 301, 302, 303, 304, 305, 306, 307, 308, 309, 310, 311, 312, 313, 314, 315, 316, 317, 318, 319, 320, 321, 322, 323, 324, 325, 326, 327, 328, 329, 330, 331, 332, 333, 334, 335, 336, 337, 338, 339, 340, 341, 342, 343, 344, 345, 346, 347, 348, 349, 350, 351, 352, 353, 354, 355, 356, 357, 358, 359, 360, 361, 362, 363, 364, 365, 366, 367, 368, 369, 370, 371, 372, 373, 374, 375, 376, 377, 378, 379, 380, 381, 382, 383, 384],
      "AcquisitionTime": ["151709.312500", "151710.562500", "151711.812500", "151713.062500", "151714.312500", "151715.562500", "151716.812500", "151718.062500", "151719.312500", "151720.562500", "151721.812500", "151723.062500", "151724.312500", "151725.562500", "151726.812500", "151728.062500", "151729.312500", "151730.562500", "151731.812500", "151733.062500", "151734.312500", "151735.562500", "151736.812500", "151738.062500", "151739.312500", "151740.562500", "151741.812500", "151743.062500", "151744.312500", "151745.562500", "151746.812500", "151748.062500", "151749.312500", "151750.562500", "151751.812500", "151753.062500", "151754.312500", "151755.562500", "151756.812500", "151758.062500", "151759.312500", "151800.562500", "151801.812500", "151803.062500", "151804.312500", "151805.562500", "151806.812500", "151808.062500", "151809.312500", "151810.562500", "151811.812500", "151813.062500", "151814.312500", "151815.562500", "151816.812500", "151818.062500", "151819.312500", "151820.562500", "151821.812500", "151823.062500", "151824.312500", "151825.562500", "151826.812500", "151828.062500", "151829.312500", "151830.562500", "151831.812500", "151833.062500", "151834.312500", "151835.562500", "151836.812500", "151838.062500", "151839.312500", "151840.562500", "151841.812500", "151843.062500", "151844.312500", "151845.562500", "151846.812500", "151848.062500", "151849.312500", "151850.562500", "151851.812500", "151853.062500", "151854.312500", "151855.562500", "151856.812500", "151858.062500", "151859.312500", "151900.562500", "151901.812500", "151903.062500", "151904.312500", "151905.562500", "151906.812500", "151908.062500", "151909.312500", "151910.562500", "151911.812500", "151913.062500", "151914.312500", "151915.562500", "151916.812500", "151918.062500", "151919.312500", "151920.562500", "151921.812500", "151923.062500", "151924.312500", "151925.562500", "151926.812500", "151928.062500", "151929.312500", "151930.562500", "151931.812500", "151933.062500", "151934.312500", "151935.562500", "151936.812500", "151938.062500", "151939.312500", "151940.562500", "151941.812500", "151943.062500", "151944.312500", "151945.562500", "151946.812500", "151948.062500", "151949.312500", "151950.562500", "151951.812500", "151953.062500", "151954.312500", "151955.562500", "151956.812500", "151958.062500", "151959.312500", "152000.562500", "152001.812500", "152003.062500", "152004.312500", "152005.562500", "152006.812500", "152008.062500", "152009.312500", "152010.562500", "152011.812500", "152013.062500", "152014.312500", "152015.562500", "152016.812500", "152018.062500", "152019.312500", "152020.562500", "152021.812500", "152023.062500", "152024.312500", "152025.562500", "152026.812500", "152028.062500", "152029.312500", "152030.562500", "152031.812500", "152033.062500", "152034.312500", "152035.562500", "152036.812500", "152038.062500", "152039.312500", "152040.562500", "152041.812500", "152043.062500", "152044.312500", "152045.562500", "152046.812500", "152048.062500", "152049.312500", "152050.562500", "152051.812500", "152053.062500", "152054.312500", "152055.562500", "152056.812500", "152058.062500", "152059.312500", "152100.562500", "152101.812500", "152103.062500", "152104.312500", "152105.562500", "152106.812500", "152108.062500", "152109.312500", "152110.562500", "152111.812500", "152113.062500", "152114.312500", "152115.562500", "152116.812500", "152118.062500", "152119.312500", "152120.562500", "152121.812500", "152123.062500", "152124.312500", "152125.562500", "152126.812500", "152128.062500", "152129.312500", "152130.562500", "152131.812500", "152133.062500", "152134.312500", "152135.562500", "152136.812500", "152138.062500", "152139.312500", "152140.562500", "152141.812500", "152143.062500", "152144.312500", "152145.562500", "152146.812500", "152148.062500", "152149.312500", "152150.562500", "152151.812500", "152153.062500", "152154.312500", "152155.562500", "152156.812500", "152158.062500", "152159.312500", "152200.562500", "152201.812500", "152203.062500", "152204.312500", "152205.562500", "152206.812500", "152208.062500", "152209.312500", "152210.562500", "152211.812500", "152213.062500", "152214.312500", "152215.562500", "152216.812500", "152218.062500", "152219.312500", "152220.562500", "152221.812500", "152223.062500", "152224.312500", "152225.562500", "152226.812500", "152228.062500", "152229.312500", "152230.562500", "152231.812500", "152233.062500", "152234.312500", "152235.562500", "152236.812500", "152238.062500", "152239.312500", "152240.562500", "152241.812500", "152243.062500", "152244.312500", "152245.562500", "152246.812500", "152248.062500", "152249.312500", "152250.562500", "152251.812500", "152253.062500", "152254.312500", "152255.562500", "152256.812500", "152258.062500", "152259.312500", "152300.562500", "152301.812500", "152303.062500", "152304.312500", "152305.562500", "152306.812500", "152308.062500", "152309.312500", "152310.562500", "152311.812500", "152313.062500", "152314.312500", "152315.562500", "152316.812500", "152318.062500", "152319.312500", "152320.562500", "152321.812500", "152323.062500", "152324.312500", "152325.562500", "152326.812500", "152328.062500", "152329.312500", "152330.562500", "152331.812500", "152333.062500", "152334.312500", "152335.562500", "152336.812500", "152338.062500", "152339.312500", "152340.562500", "152341.812500", "152343.062500", "152344.312500", "152345.562500", "152346.812500", "152348.062500", "152349.312500", "152350.562500", "152351.812500", "152353.062500", "152354.312500", "152355.562500", "152356.812500", "152358.062500", "152359.312500", "152400.562500", "152401.812500", "152403.062500", "152404.312500", "152405.562500", "152406.812500", "152408.062500", "152409.312500", "152410.562500", "152411.812500", "152413.062500", "152414.312500", "152415.562500", "152416.812500", "152418.062500", "152419.312500", "152420.562500", "152421.812500", "152423.062500", "152424.312500", "152425.562500", "152426.812500", "152428.062500", "152429.312500", "152430.562500", "152431.812500", "152433.062500", "152434.312500", "152435.562500", "152436.812500", "152438.062500", "152439.312500", "152440.562500", "152441.812500", "152443.062500", "152444.312500", "152445.562500", "152446.812500", "152448.062500", "152449.312500", "152450.562500", "152451.812500", "152453.062500", "152454.312500", "152455.562500", "152456.812500", "152458.062500", "152459.312500", "152500.562500", "152501.812500", "152503.062500", "152504.312500", "152505.562500", "152506.812500", "152508.062500"],
      "ContentTime": ["151739.845000", "151739.849000", "151739.852000", "151739.855000", "151739.864000", "151739.867000", "151739.870000", "151739.875000", "151739.878000", "151739.881000", "151739.884000", "151739.887000", "151739.890000", "151739.893000", "151739.896000", "151739.899000", "151739.902000", "151739.905000", "151739.924000", "151739.927000", "151739.930000", "151739.933000", "151739.936000", "151739.939000", "151819.842000", "151819.845000", "151819.848000", "151819.851000", "151819.854000", "151819.857000", "151819.859000", "151819.862000", "151819.865000", "151819.868000", "151819.871000", "151819.874000", "151819.877000", "151819.880000", "151819.883000", "151819.886000", "151819.889000", "151819.892000", "151819.895000", "151819.898000", "151819.901000", "151819.904000", "151819.906000", "151819.909000", "151819.912000", "151819.915000", "151819.918000", "151819.921000", "151819.924000", "151819.927000", "151819.930000", "151819.933000", "151859.841000", "151859.844000", "151859.847000", "151859.850000", "151859.853000", "151859.856000", "151859.859000", "151859.862000", "151859.865000", "151859.868000", "151859.871000", "151859.874000", "151859.876000", "151859.879000", "151859.882000", "151859.885000", "151859.888000", "151859.891000", "151859.894000", "151859.897000", "151859.900000", "151859.903000", "151859.916000", "151859.919000", "151859.921000", "151859.925000", "151859.927000", "151859.930000", "151859.933000", "151859.936000", "151859.939000", "151859.942000", "151919.841000", "151919.844000", "151919.847000", "151919.850000", "151919.853000", "151919.856000", "151919.859000", "151919.862000", "151919.865000", "151919.868000", "151919.871000", "151919.874000", "151919.877000", "151919.880000", "151919.882000", "151919.885000", "151959.841000", "151959.844000", "151959.847000", "151959.850000", "151959.853000", "151959.856000", "151959.859000", "151959.862000", "151959.865000", "151959.868000", "151959.871000", "151959.874000", "151959.877000", "151959.880000", "151959.883000", "151959.885000", "151959.888000", "151959.891000", "151959.894000", "151959.897000", "151959.900000", "151959.903000", "151959.906000", "151959.909000", "151959.912000", "151959.915000", "151959.918000", "151959.921000", "151959.924000", "151959.927000", "151959.930000", "151959.933000", "152039.842000", "152039.845000", "152039.848000", "152039.851000", "152039.854000", "152039.857000", "152039.860000", "152039.863000", "152039.866000", "152039.869000", "152039.872000", "152039.875000", "152039.878000", "152039.881000", "152039.884000", "152039.886000", "152039.889000", "152039.892000", "152039.895000", "152039.898000", "152039.901000", "152039.904000", "152039.907000", "152039.910000", "152039.913000", "152039.916000", "152039.919000", "152039.922000", "152039.925000", "152039.928000", "152039.931000", "152039.934000", "152119.842000", "152119.863000", "152119.866000", "152119.869000", "152119.872000", "152119.875000", "152119.878000", "152119.881000", "152119.884000", "152119.887000", "152119.890000", "152119.893000", "152119.896000", "152119.899000", "152119.902000", "152119.905000", "152119.908000", "152119.911000", "152119.914000", "152119.917000", "152119.920000", "152119.923000", "152119.926000", "152119.929000", "152119.931000", "152119.935000", "152119.937000", "152119.940000", "152119.943000", "152119.946000", "152119.949000", "152119.952000", "152159.841000", "152159.844000", "152159.847000", "152159.850000", "152159.853000", "152159.856000", "152159.859000", "152159.862000", "152159.865000", "152159.868000", "152159.871000", "152159.874000", "152159.883000", "152159.886000", "152159.889000", "152159.892000", "152159.895000", "152159.898000", "152159.901000", "152159.903000", "152159.906000", "152159.909000", "152159.912000", "152159.915000", "152159.918000", "152159.921000", "152159.924000", "152159.927000", "152159.930000", "152159.933000", "152159.936000", "152159.939000", "152239.842000", "152239.845000", "152239.848000", "152239.851000", "152239.854000", "152239.857000", "152239.860000", "152239.863000", "152239.866000", "152239.869000", "152239.872000", "152239.875000", "152239.878000", "152239.881000", "152239.884000", "152239.887000", "152239.890000", "152239.893000", "152239.896000", "152239.899000", "152239.902000", "152239.910000", "152239.913000", "152239.916000", "152239.919000", "152239.922000", "152239.933000", "152239.936000", "152239.939000", "152239.942000", "152239.945000", "152239.948000", "152319.842000", "152319.845000", "152319.848000", "152319.851000", "152319.854000", "152319.857000", "152319.860000", "152319.863000", "152319.866000", "152319.869000", "152319.872000", "152319.875000", "152319.878000", "152319.881000", "152319.884000", "152319.887000", "152319.890000", "152319.893000", "152319.896000", "152319.899000", "152319.902000", "152319.905000", "152319.908000", "152319.910000", "152319.930000", "152319.933000", "152319.936000", "152319.939000", "152319.942000", "152319.945000", "152319.947000", "152319.950000", "152359.841000", "152359.844000", "152359.847000", "152359.850000", "152359.853000", "152359.856000", "152359.859000", "152359.862000", "152359.865000", "152359.868000", "152359.871000", "152359.874000", "152359.877000", "152359.880000", "152359.883000", "152359.886000", "152359.889000", "152359.892000", "152359.895000", "152359.898000", "152359.901000", "152359.904000", "152359.907000", "152359.910000", "152359.913000", "152359.916000", "152359.919000", "152359.921000", "152359.924000", "152359.927000", "152359.930000", "152359.933000", "152439.841000", "152439.844000", "152439.847000", "152439.850000", "152439.853000", "152439.856000", "152439.859000", "152439.862000", "152439.865000", "152439.868000", "152439.871000", "152439.874000", "152439.877000", "152439.880000", "152439.883000", "152439.886000", "152439.888000", "152439.891000", "152439.894000", "152439.897000", "152439.900000", "152439.903000", "152439.906000", "152439.909000", "152439.912000", "152439.915000", "152439.918000", "152439.921000", "152439.924000", "152439.926000", "152439.929000", "152439.932000", "152509.378000", "152509.382000", "152509.386000", "152509.389000", "152509.393000", "152509.397000", "152509.400000", "152509.404000", "152509.408000", "152509.411000", "152509.415000", "152509.418000", "152509.421000", "152509.424000", "152509.427000", "152509.430000", "152509.435000", "152509.438000", "152509.441000", "152509.444000", "152509.447000", "152509.450000", "152509.453000", "152509.456000"],
      "InstanceCreationTime": ["151739.845000", "151739.849000", "151739.852000", "151739.855000", "151739.864000", "151739.867000", "151739.870000", "151739.875000", "151739.878000", "151739.881000", "151739.884000", "151739.887000", "151739.890000", "151739.893000", "151739.896000", "151739.899000", "151739.902000", "151739.905000", "151739.924000", "151739.927000", "151739.930000", "151739.933000", "151739.936000", "151739.939000", "151819.842000", "151819.845000", "151819.848000", "151819.851000", "151819.854000", "151819.857000", "151819.859000", "151819.862000", "151819.865000", "151819.868000", "151819.871000", "151819.874000", "151819.877000", "151819.880000", "151819.883000", "151819.886000", "151819.889000", "151819.892000", "151819.895000", "151819.898000", "151819.901000", "151819.904000", "151819.906000", "151819.909000", "151819.912000", "151819.915000", "151819.918000", "151819.921000", "151819.924000", "151819.927000", "151819.930000", "151819.933000", "151859.841000", "151859.844000", "151859.847000", "151859.850000", "151859.853000", "151859.856000", "151859.859000", "151859.862000", "151859.865000", "151859.868000", "151859.871000", "151859.874000", "151859.876000", "151859.879000", "151859.882000", "151859.885000", "151859.888000", "151859.891000", "151859.894000", "151859.897000", "151859.900000", "151859.903000", "151859.916000", "151859.919000", "151859.921000", "151859.925000", "151859.927000", "151859.930000", "151859.933000", "151859.936000", "151859.939000", "151859.942000", "151919.841000", "151919.844000", "151919.847000", "151919.850000", "151919.853000", "151919.856000", "151919.859000", "151919.862000", "151919.865000", "151919.868000", "151919.871000", "151919.874000", "151919.877000", "151919.880000", "151919.882000", "151919.885000", "151959.841000", "151959.844000", "151959.847000", "151959.850000", "151959.853000", "151959.856000", "151959.859000", "151959.862000", "151959.865000", "151959.868000", "151959.871000", "151959.874000", "151959.877000", "151959.880000", "151959.883000", "151959.885000", "151959.888000", "151959.891000", "151959.894000", "151959.897000", "151959.900000", "151959.903000", "151959.906000", "151959.909000", "151959.912000", "151959.915000", "151959.918000", "151959.921000", "151959.924000", "151959.927000", "151959.930000", "151959.933000", "152039.842000", "152039.845000", "152039.848000", "152039.851000", "152039.854000", "152039.857000", "152039.860000", "152039.863000", "152039.866000", "152039.869000", "152039.872000", "152039.875000", "152039.878000", "152039.881000", "152039.884000", "152039.886000", "152039.889000", "152039.892000", "152039.895000", "152039.898000", "152039.901000", "152039.904000", "152039.907000", "152039.910000", "152039.913000", "152039.916000", "152039.919000", "152039.922000", "152039.925000", "152039.928000", "152039.931000", "152039.934000", "152119.842000", "152119.863000", "152119.866000", "152119.869000", "152119.872000", "152119.875000", "152119.878000", "152119.881000", "152119.884000", "152119.887000", "152119.890000", "152119.893000", "152119.896000", "152119.899000", "152119.902000", "152119.905000", "152119.908000", "152119.911000", "152119.914000", "152119.917000", "152119.920000", "152119.923000", "152119.926000", "152119.929000", "152119.931000", "152119.935000", "152119.937000", "152119.940000", "152119.943000", "152119.946000", "152119.949000", "152119.952000", "152159.841000", "152159.844000", "152159.847000", "152159.850000", "152159.853000", "152159.856000", "152159.859000", "152159.862000", "152159.865000", "152159.868000", "152159.871000", "152159.874000", "152159.883000", "152159.886000", "152159.889000", "152159.892000", "152159.895000", "152159.898000", "152159.901000", "152159.903000", "152159.906000", "152159.909000", "152159.912000", "152159.915000", "152159.918000", "152159.921000", "152159.924000", "152159.927000", "152159.930000", "152159.933000", "152159.936000", "152159.939000", "152239.842000", "152239.845000", "152239.848000", "152239.851000", "152239.854000", "152239.857000", "152239.860000", "152239.863000", "152239.866000", "152239.869000", "152239.872000", "152239.875000", "152239.878000", "152239.881000", "152239.884000", "152239.887000", "152239.890000", "152239.893000", "152239.896000", "152239.899000", "152239.902000", "152239.910000", "152239.913000", "152239.916000", "152239.919000", "152239.922000", "152239.933000", "152239.936000", "152239.939000", "152239.942000", "152239.945000", "152239.948000", "152319.842000", "152319.845000", "152319.848000", "152319.851000", "152319.854000", "152319.857000", "152319.860000", "152319.863000", "152319.866000", "152319.869000", "152319.872000", "152319.875000", "152319.878000", "152319.881000", "152319.884000", "152319.887000", "152319.890000", "152319.893000", "152319.896000", "152319.899000", "152319.902000", "152319.905000", "152319.908000", "152319.910000", "152319.930000", "152319.933000", "152319.936000", "152319.939000", "152319.942000", "152319.945000", "152319.947000", "152319.950000", "152359.841000", "152359.844000", "152359.847000", "152359.850000", "152359.853000", "152359.856000", "152359.859000", "152359.862000", "152359.865000", "152359.868000", "152359.871000", "152359.874000", "152359.877000", "152359.880000", "152359.883000", "152359.886000", "152359.889000", "152359.892000", "152359.895000", "152359.898000", "152359.901000", "152359.904000", "152359.907000", "152359.910000", "152359.913000", "152359.916000", "152359.919000", "152359.921000", "152359.924000", "152359.927000", "152359.930000", "152359.933000", "152439.841000", "152439.844000", "152439.847000", "152439.850000", "152439.853000", "152439.856000", "152439.859000", "152439.862000", "152439.865000", "152439.868000", "152439.871000", "152439.874000", "152439.877000", "152439.880000", "152439.883000", "152439.886000", "152439.888000", "152439.891000", "152439.894000", "152439.897000", "152439.900000", "152439.903000", "152439.906000", "152439.909000", "152439.912000", "152439.915000", "152439.918000", "152439.921000", "152439.924000", "152439.926000", "152439.929000", "152439.932000", "152509.378000", "152509.382000", "152509.386000", "152509.389000", "152509.393000", "152509.397000", "152509.400000", "152509.404000", "152509.408000", "152509.411000", "152509.415000", "152509.418000", "152509.421000", "152509.424000", "152509.427000", "152509.430000", "152509.435000", "152509.438000", "152509.441000", "152509.444000", "152509.447000", "152509.450000", "152509.453000", "152509.456000"],
      "InstanceNumber": [1, 2, 3, 4, 5, 6, 7, 8, 9, 10, 11, 12, 13, 14, 15, 16, 17, 18, 19, 20, 21, 22, 23, 24, 25, 26, 27, 28, 29, 30, 31, 32, 33, 34, 35, 36, 37, 38, 39, 40, 41, 42, 43, 44, 45, 46, 47, 48, 49, 50, 51, 52, 53, 54, 55, 56, 57, 58, 59, 60, 61, 62, 63, 64, 65, 66, 67, 68, 69, 70, 71, 72, 73, 74, 75, 76, 77, 78, 79, 80, 81, 82, 83, 84, 85, 86, 87, 88, 89, 90, 91, 92, 93, 94, 95, 96, 97, 98, 99, 100, 101, 102, 103, 104, 105, 106, 107, 108, 109, 110, 111, 112, 113, 114, 115, 116, 117, 118, 119, 120, 121, 122, 123, 124, 125, 126, 127, 128, 129, 130, 131, 132, 133, 134, 135, 136, 137, 138, 139, 140, 141, 142, 143, 144, 145, 146, 147, 148, 149, 150, 151, 152, 153, 154, 155, 156, 157, 158, 159, 160, 161, 162, 163, 164, 165, 166, 167, 168, 169, 170, 171, 172, 173, 174, 175, 176, 177, 178, 179, 180, 181, 182, 183, 184, 185, 186, 187, 188, 189, 190, 191, 192, 193, 194, 195, 196, 197, 198, 199, 200, 201, 202, 203, 204, 205, 206, 207, 208, 209, 210, 211, 212, 213, 214, 215, 216, 217, 218, 219, 220, 221, 222, 223, 224, 225, 226, 227, 228, 229, 230, 231, 232, 233, 234, 235, 236, 237, 238, 239, 240, 241, 242, 243, 244, 245, 246, 247, 248, 249, 250, 251, 252, 253, 254, 255, 256, 257, 258, 259, 260, 261, 262, 263, 264, 265, 266, 267, 268, 269, 270, 271, 272, 273, 274, 275, 276, 277, 278, 279, 280, 281, 282, 283, 284, 285, 286, 287, 288, 289, 290, 291, 292, 293, 294, 295, 296, 297, 298, 299, 300, 301, 302, 303, 304, 305, 306, 307, 308, 309, 310, 311, 312, 313, 314, 315, 316, 317, 318, 319, 320, 321, 322, 323, 324, 325, 326, 327, 328, 329, 330, 331, 332, 333, 334, 335, 336, 337, 338, 339, 340, 341, 342, 343, 344, 345, 346, 347, 348, 349, 350, 351, 352, 353, 354, 355, 356, 357, 358, 359, 360, 361, 362, 363, 364, 365, 366, 367, 368, 369, 370, 371, 372, 373, 374, 375, 376, 377, 378, 379, 380, 381, 382, 383, 384],
