{
  "AcquisitionMatrixPE": 88,
  "AcquisitionNumber": 1,
  "AcquisitionTime": "15:26:48.755000",
  "BandwidthPerPixelPhaseEncode": 34.965,
  "BaseResolution": 88,
  "BodyPartExamined": "BRAIN",
  "ConsistencyInfo": "N4_VE11C_LATEST_20160120",
  "ConversionSoftware": "dcm2niix",
  "ConversionSoftwareVersion": "v1.0.20190720  GCC5.4.0",
  "DerivedVendorReportedEchoSpacing": 0.000650001,
  "DeviceSerialNumber": "67007",
  "DwellTime": 3.1e-06,
  "EchoTime": 0.039,
  "EchoTrainLength": 32,
  "EffectiveEchoSpacing": 0.000325,
  "FlipAngle": 50,
  "ImageComments": "Unaliased_MB4_PE4",
  "ImageOrientationPatientDICOM": [0.999342, -0.0117959, -0.0342881, -1.01225e-08, 0.945607, -0.325311],
  "ImageType": [
    "ORIGINAL",
    "PRIMARY",
    "M",
    "MB",
    "ND",
    "NORM",
    "MOSAIC"
],
  "ImagingFrequency": 123.22,
  "InPlanePhaseEncodingDirectionDICOM": "COL",
  "InstitutionAddress": "Perth_Drive_100_London_Ontario_CA_N6A_5K8",
  "InstitutionName": "Robarts_Research_Institute",
  "InstitutionalDepartmentName": "CFMM",
  "MRAcquisitionType": "2D",
  "MagneticFieldStrength": 3,
  "Manufacturer": "Siemens",
  "ManufacturersModelName": "Prisma_fit",
  "Modality": "MR",
  "MultibandAccelerationFactor": 4,
  "ParallelReductionFactorInPlane": 2,
  "PartialFourier": 0.75,
  "PatientPosition": "HFS",
  "PercentPhaseFOV": 100,
  "PhaseEncodingDirection": "j-",
  "PhaseEncodingSteps": 65,
  "PhaseResolution": 1,
  "PixelBandwidth": 1835,
  "ProcedureStepDescription": "Burneo_EpLinkPhase3",
  "ProtocolName": "ep_bold_mb4_p2_2.5iso_Movie",
  "PulseSequenceDetails": "%CustomerSeq%_cmrr_mbep2d_bold",
  "ReceiveCoilActiveElements": "HEA;HEP",
  "ReceiveCoilName": "Head_32",
  "ReconMatrixPE": 88,
  "RefLinesPE": 24,
  "RepetitionTime": 1.25,
  "SAR": 0.087576,
  "ScanOptions": "PFP_FS_EXT",
  "ScanningSequence": "EP",
  "SequenceName": "epfid2d1_88",
  "SequenceVariant": "SK_SS",
  "SeriesDescription": "ep_bold_mb4_p2_2.5iso_Movie",
  "SeriesNumber": 15,
  "ShimSetting": [5206, -6390, -4029, 242, 127, 305, -3, -37],
  "SliceThickness": 2.5,
  "SliceTiming": [0, 0.655, 0.0825, 0.7375, 0.165, 0.82, 0.245, 0.9025, 0.3275, 0.985, 0.41, 1.065, 0.4925, 1.1475, 0.575, 0, 0.655, 0.0825, 0.7375, 0.165, 0.82, 0.245, 0.9025, 0.3275, 0.985, 0.41, 1.065, 0.4925, 1.1475, 0.575, 0, 0.655, 0.0825, 0.7375, 0.165, 0.82, 0.245, 0.9025, 0.3275, 0.985, 0.41, 1.065, 0.4925, 1.1475, 0.575, 0, 0.655, 0.0825, 0.7375, 0.165, 0.82, 0.245, 0.9025, 0.3275, 0.985, 0.41, 1.065, 0.4925, 1.1475, 0.575],
  "SoftwareVersions": "syngo_MR_E11",
  "SpacingBetweenSlices": 2.5,
  "StationName": "MRC35368",
  "TaskName": "movie",
  "TotalReadoutTime": 0.028275,
  "TxRefAmp": 285.725,
  "WipMemBlock": "fad997a0-35ca-41ea-ad1e-89d984fa9b03||Sequence: R016 ve11c/master r/e634e98; Dec 19 2017 11:00:25 by eja",
  "dcmmeta_affine": [
    [-2.4983558654785156, -2.5306247763978718e-08, -0.09065098315477371, 120.8086929321289],
    [0.02948976308107376, 2.3640174865722656, -0.8127433657646179, -65.00215911865234],
    [-0.08572021126747131, 0.8132781982421875, 2.3624627590179443, -140.3008575439453],
    [0.0, 0.0, 0.0, 1.0]
],
  "dcmmeta_reorient_transform": [
    [0.0, -1.0, 0.0, 87.0],
    [1.0, 0.0, 0.0, 0.0],
    [0.0, 0.0, 1.0, 0.0],
    [0.0, 0.0, 0.0, 1.0]
],
  "dcmmeta_shape": [88, 88, 60, 384],
  "dcmmeta_slice_dim": 2,
  "dcmmeta_version": 0.6,
  "global": {
    "const": {
      "AcquisitionMatrix": [88, 0, 0, 88],
      "AngioFlag": "N",
      "BitsAllocated": 16,
      "BitsStored": 16,
      "BodyPartExamined": "BRAIN",
      "CardiacNumberOfImages": 1,
      "Columns": 704,
      "EchoNumbers": 1,
      "EchoTime": 39.0,
      "EchoTrainLength": 32,
      "FlipAngle": 50.0,
      "HighBit": 15,
      "ImageOrientationPatient": [0.99934237568708, -0.0117959052708, -0.0342880850288, -1.0122499e-08, 0.9456069881319, -0.3253112724701],
      "ImagePositionPatient": [-890.30230987219, -859.70189210842, 207.34585684022],
      "ImageType": [
        "ORIGINAL",
        "PRIMARY",
        "M",
        "MB",
        "ND",
        "NORM",
        "MOSAIC"
],
      "ImagedNucleus": "1H",
      "ImagingFrequency": 123.219572,
      "InPlanePhaseEncodingDirection": "COL",
      "MRAcquisitionType": "2D",
      "MagneticFieldStrength": 3.0,
      "Manufacturer": "SIEMENS",
      "ManufacturerModelName": "Prisma_fit",
      "Modality": "MR",
      "NominalInterval": 0,
      "NumberOfAverages": 1.0,
      "NumberOfPhaseEncodingSteps": 65,
      "PercentPhaseFieldOfView": 100.0,
      "PercentSampling": 100.0,
      "PerformedProcedureStepStartTime": "142553.264000",
      "PhotometricInterpretation": "MONOCHROME2",
      "PixelBandwidth": 1835.0,
      "PixelRepresentation": 0,
      "PixelSpacing": [2.5, 2.5],
      "ProtocolName": "ep_bold_mb4_p2_2.5iso_Movie",
      "RepetitionTime": 1250.0,
      "Rows": 704,
      "SAR": 0.08757600829089,
      "SamplesPerPixel": 1,
      "ScanOptions": [
        "PFP",
        "FS",
        "EXT"
],
      "ScanningSequence": "EP",
      "SequenceName": "epfid2d1_88",
      "SequenceVariant": [
        "SK",
        "SS"
],
      "SeriesDescription": "ep_bold_mb4_p2_2.5iso_Movie",
      "SeriesNumber": 15,
      "SeriesTime": "152730.387000",
      "SliceLocation": -115.83075854667,
      "SliceThickness": 2.5,
      "SmallestImagePixelValue": 0,
      "SoftwareVersions": "syngo MR E11",
      "SpacingBetweenSlices": 2.5000000097589,
      "SpecificCharacterSet": "ISO_IR 100",
      "StudyID": "1",
      "StudyTime": "142553.203000",
      "TransmitCoilName": "Body",
      "VariableFlipAngleFlag": "N",
      "WindowCenterWidthExplanation": "Algo1",
      "dBdt": 0.0},
    "slices": {}
  },
  "time": {
    "samples": {
      "AcquisitionNumber": [1, 2, 3, 4, 5, 6, 7, 8, 9, 10, 11, 12, 13, 14, 15, 16, 17, 18, 19, 20, 21, 22, 23, 24, 25, 26, 27, 28, 29, 30, 31, 32, 33, 34, 35, 36, 37, 38, 39, 40, 41, 42, 43, 44, 45, 46, 47, 48, 49, 50, 51, 52, 53, 54, 55, 56, 57, 58, 59, 60, 61, 62, 63, 64, 65, 66, 67, 68, 69, 70, 71, 72, 73, 74, 75, 76, 77, 78, 79, 80, 81, 82, 83, 84, 85, 86, 87, 88, 89, 90, 91, 92, 93, 94, 95, 96, 97, 98, 99, 100, 101, 102, 103, 104, 105, 106, 107, 108, 109, 110, 111, 112, 113, 114, 115, 116, 117, 118, 119, 120, 121, 122, 123, 124, 125, 126, 127, 128, 129, 130, 131, 132, 133, 134, 135, 136, 137, 138, 139, 140, 141, 142, 143, 144, 145, 146, 147, 148, 149, 150, 151, 152, 153, 154, 155, 156, 157, 158, 159, 160, 161, 162, 163, 164, 165, 166, 167, 168, 169, 170, 171, 172, 173, 174, 175, 176, 177, 178, 179, 180, 181, 182, 183, 184, 185, 186, 187, 188, 189, 190, 191, 192, 193, 194, 195, 196, 197, 198, 199, 200, 201, 202, 203, 204, 205, 206, 207, 208, 209, 210, 211, 212, 213, 214, 215, 216, 217, 218, 219, 220, 221, 222, 223, 224, 225, 226, 227, 228, 229, 230, 231, 232, 233, 234, 235, 236, 237, 238, 239, 240, 241, 242, 243, 244, 245, 246, 247, 248, 249, 250, 251, 252, 253, 254, 255, 256, 257, 258, 259, 260, 261, 262, 263, 264, 265, 266, 267, 268, 269, 270, 271, 272, 273, 274, 275, 276, 277, 278, 279, 280, 281, 282, 283, 284, 285, 286, 287, 288, 289, 290, 291, 292, 293, 294, 295, 296, 297, 298, 299, 300, 301, 302, 303, 304, 305, 306, 307, 308, 309, 310, 311, 312, 313, 314, 315, 316, 317, 318, 319, 320, 321, 322, 323, 324, 325, 326, 327, 328, 329, 330, 331, 332, 333, 334, 335, 336, 337, 338, 339, 340, 341, 342, 343, 344, 345, 346, 347, 348, 349, 350, 351, 352, 353, 354, 355, 356, 357, 358, 359, 360, 361, 362, 363, 364, 365, 366, 367, 368, 369, 370, 371, 372, 373, 374, 375, 376, 377, 378, 379, 380, 381, 382, 383, 384],
      "AcquisitionTime": ["152648.755000", "152650.005000", "152651.255000", "152652.505000", "152653.755000", "152655.005000", "152656.255000", "152657.505000", "152658.755000", "152700.005000", "152701.255000", "152702.505000", "152703.755000", "152705.005000", "152706.255000", "152707.505000", "152708.755000", "152710.005000", "152711.255000", "152712.505000", "152713.755000", "152715.005000", "152716.255000", "152717.505000", "152718.755000", "152720.005000", "152721.255000", "152722.505000", "152723.755000", "152725.005000", "152726.255000", "152727.505000", "152728.755000", "152730.005000", "152731.255000", "152732.505000", "152733.755000", "152735.005000", "152736.255000", "152737.505000", "152738.755000", "152740.005000", "152741.255000", "152742.505000", "152743.755000", "152745.005000", "152746.255000", "152747.505000", "152748.755000", "152750.005000", "152751.255000", "152752.505000", "152753.755000", "152755.005000", "152756.255000", "152757.505000", "152758.755000", "152800.005000", "152801.255000", "152802.505000", "152803.755000", "152805.005000", "152806.255000", "152807.505000", "152808.755000", "152810.005000", "152811.255000", "152812.505000", "152813.755000", "152815.005000", "152816.255000", "152817.505000", "152818.755000", "152820.005000", "152821.255000", "152822.505000", "152823.755000", "152825.005000", "152826.255000", "152827.505000", "152828.755000", "152830.005000", "152831.255000", "152832.505000", "152833.755000", "152835.005000", "152836.255000", "152837.505000", "152838.755000", "152840.005000", "152841.255000", "152842.505000", "152843.755000", "152845.005000", "152846.255000", "152847.505000", "152848.755000", "152850.005000", "152851.255000", "152852.505000", "152853.755000", "152855.005000", "152856.255000", "152857.505000", "152858.755000", "152900.005000", "152901.255000", "152902.505000", "152903.755000", "152905.005000", "152906.255000", "152907.505000", "152908.755000", "152910.005000", "152911.255000", "152912.505000", "152913.755000", "152915.005000", "152916.255000", "152917.505000", "152918.755000", "152920.005000", "152921.255000", "152922.505000", "152923.755000", "152925.005000", "152926.255000", "152927.505000", "152928.755000", "152930.005000", "152931.255000", "152932.505000", "152933.755000", "152935.005000", "152936.255000", "152937.505000", "152938.755000", "152940.005000", "152941.255000", "152942.505000", "152943.755000", "152945.005000", "152946.255000", "152947.505000", "152948.755000", "152950.005000", "152951.255000", "152952.505000", "152953.755000", "152955.005000", "152956.255000", "152957.505000", "152958.755000", "153000.005000", "153001.255000", "153002.505000", "153003.755000", "153005.005000", "153006.255000", "153007.505000", "153008.755000", "153010.005000", "153011.255000", "153012.505000", "153013.755000", "153015.005000", "153016.255000", "153017.505000", "153018.755000", "153020.005000", "153021.255000", "153022.505000", "153023.755000", "153025.005000", "153026.255000", "153027.505000", "153028.755000", "153030.005000", "153031.255000", "153032.505000", "153033.755000", "153035.005000", "153036.255000", "153037.505000", "153038.755000", "153040.005000", "153041.255000", "153042.505000", "153043.755000", "153045.005000", "153046.255000", "153047.505000", "153048.755000", "153050.005000", "153051.255000", "153052.505000", "153053.755000", "153055.005000", "153056.255000", "153057.505000", "153058.755000", "153100.005000", "153101.255000", "153102.505000", "153103.755000", "153105.005000", "153106.255000", "153107.505000", "153108.755000", "153110.005000", "153111.255000", "153112.505000", "153113.755000", "153115.005000", "153116.255000", "153117.505000", "153118.755000", "153120.005000", "153121.255000", "153122.505000", "153123.755000", "153125.005000", "153126.255000", "153127.505000", "153128.755000", "153130.005000", "153131.255000", "153132.505000", "153133.755000", "153135.005000", "153136.255000", "153137.505000", "153138.755000", "153140.005000", "153141.255000", "153142.505000", "153143.755000", "153145.005000", "153146.255000", "153147.505000", "153148.755000", "153150.005000", "153151.255000", "153152.505000", "153153.755000", "153155.005000", "153156.255000", "153157.505000", "153158.755000", "153200.005000", "153201.255000", "153202.505000", "153203.755000", "153205.005000", "153206.255000", "153207.505000", "153208.755000", "153210.005000", "153211.255000", "153212.505000", "153213.755000", "153215.005000", "153216.255000", "153217.505000", "153218.755000", "153220.005000", "153221.255000", "153222.505000", "153223.755000", "153225.005000", "153226.255000", "153227.505000", "153228.755000", "153230.005000", "153231.255000", "153232.505000", "153233.755000", "153235.005000", "153236.255000", "153237.505000", "153238.755000", "153240.005000", "153241.255000", "153242.505000", "153243.755000", "153245.005000", "153246.255000", "153247.505000", "153248.755000", "153250.005000", "153251.255000", "153252.505000", "153253.755000", "153255.005000", "153256.255000", "153257.505000", "153258.755000", "153300.005000", "153301.255000", "153302.505000", "153303.755000", "153305.005000", "153306.255000", "153307.505000", "153308.755000", "153310.005000", "153311.255000", "153312.505000", "153313.755000", "153315.005000", "153316.255000", "153317.505000", "153318.755000", "153320.005000", "153321.255000", "153322.505000", "153323.755000", "153325.005000", "153326.255000", "153327.505000", "153328.755000", "153330.005000", "153331.255000", "153332.505000", "153333.755000", "153335.005000", "153336.255000", "153337.505000", "153338.755000", "153340.005000", "153341.255000", "153342.505000", "153343.755000", "153345.005000", "153346.255000", "153347.505000", "153348.755000", "153350.005000", "153351.255000", "153352.505000", "153353.755000", "153355.005000", "153356.255000", "153357.505000", "153358.755000", "153400.005000", "153401.255000", "153402.505000", "153403.755000", "153405.005000", "153406.255000", "153407.505000", "153408.755000", "153410.005000", "153411.255000", "153412.505000", "153413.755000", "153415.005000", "153416.255000", "153417.505000", "153418.755000", "153420.005000", "153421.255000", "153422.505000", "153423.755000", "153425.005000", "153426.255000", "153427.505000", "153428.755000", "153430.005000", "153431.255000", "153432.505000", "153433.755000", "153435.005000", "153436.255000", "153437.505000", "153438.755000", "153440.005000", "153441.255000", "153442.505000", "153443.755000", "153445.005000", "153446.255000", "153447.505000"],
      "ContentTime": ["152730.391000", "152730.394000", "152730.397000", "152730.400000", "152730.403000", "152730.411000", "152730.414000", "152730.417000", "152730.420000", "152730.423000", "152730.426000", "152730.429000", "152730.432000", "152730.448000", "152730.451000", "152730.454000", "152730.457000", "152730.459000", "152730.464000", "152730.467000", "152730.470000", "152730.473000", "152730.475000", "152730.478000", "152730.481000", "152730.484000", "152730.487000", "152730.490000", "152730.493000", "152730.496000", "152730.499000", "152730.502000", "152730.505000", "152810.385000", "152810.388000", "152810.391000", "152810.394000", "152810.397000", "152810.400000", "152810.403000", "152810.406000", "152810.409000", "152810.412000", "152810.415000", "152810.418000", "152810.421000", "152810.423000", "152810.431000", "152810.434000", "152810.437000", "152810.440000", "152810.443000", "152810.446000", "152810.449000", "152810.452000", "152810.455000", "152810.458000", "152810.461000", "152810.464000", "152810.467000", "152810.470000", "152810.472000", "152810.475000", "152810.479000", "152810.481000", "152850.386000", "152850.389000", "152850.392000", "152850.395000", "152850.398000", "152850.401000", "152850.404000", "152850.407000", "152850.410000", "152850.412000", "152850.415000", "152850.418000", "152850.421000", "152850.424000", "152850.427000", "152850.430000", "152850.433000", "152850.436000", "152850.439000", "152850.442000", "152850.445000", "152850.448000", "152850.451000", "152850.453000", "152850.456000", "152850.459000", "152850.462000", "152850.470000", "152850.473000", "152850.476000", "152850.479000", "152850.482000", "152910.386000", "152910.389000", "152910.392000", "152910.395000", "152910.398000", "152910.401000", "152910.404000", "152910.407000", "152910.410000", "152910.413000", "152910.416000", "152910.419000", "152910.421000", "152910.424000", "152910.427000", "152910.430000", "152950.386000", "152950.389000", "152950.392000", "152950.395000", "152950.398000", "152950.401000", "152950.404000", "152950.407000", "152950.410000", "152950.412000", "152950.416000", "152950.418000", "152950.421000", "152950.424000", "152950.427000", "152950.430000", "152950.433000", "152950.436000", "152950.439000", "152950.442000", "152950.445000", "152950.448000", "152950.451000", "152950.454000", "152950.457000", "152950.460000", "152950.463000", "152950.466000", "152950.469000", "152950.472000", "152950.475000", "152950.478000", "153030.385000", "153030.388000", "153030.391000", "153030.394000", "153030.397000", "153030.400000", "153030.403000", "153030.406000", "153030.409000", "153030.412000", "153030.415000", "153030.418000", "153030.421000", "153030.424000", "153030.427000", "153030.430000", "153030.433000", "153030.436000", "153030.439000", "153030.442000", "153030.444000", "153030.447000", "153030.450000", "153030.453000", "153030.456000", "153030.459000", "153030.462000", "153030.465000", "153030.468000", "153030.471000", "153030.474000", "153030.477000", "153110.386000", "153110.389000", "153110.392000", "153110.395000", "153110.398000", "153110.401000", "153110.404000", "153110.407000", "153110.410000", "153110.413000", "153110.416000", "153110.419000", "153110.422000", "153110.425000", "153110.428000", "153110.431000", "153110.434000", "153110.437000", "153110.440000", "153110.443000", "153110.446000", "153110.449000", "153110.452000", "153110.455000", "153110.457000", "153110.460000", "153110.463000", "153110.466000", "153110.469000", "153110.472000", "153110.475000", "153110.478000", "153150.397000", "153150.400000", "153150.404000", "153150.406000", "153150.409000", "153150.412000", "153150.415000", "153150.418000", "153150.421000", "153150.424000", "153150.427000", "153150.430000", "153150.433000", "153150.436000", "153150.439000", "153150.442000", "153150.445000", "153150.448000", "153150.451000", "153150.454000", "153150.457000", "153150.460000", "153150.463000", "153150.466000", "153150.469000", "153150.472000", "153150.475000", "153150.478000", "153150.481000", "153150.483000", "153150.486000", "153150.489000", "153230.385000", "153230.388000", "153230.391000", "153230.394000", "153230.397000", "153230.400000", "153230.403000", "153230.406000", "153230.409000", "153230.412000", "153230.415000", "153230.418000", "153230.421000", "153230.424000", "153230.427000", "153230.430000", "153230.433000", "153230.435000", "153230.443000", "153230.446000", "153230.449000", "153230.452000", "153230.455000", "153230.458000", "153230.461000", "153230.464000", "153230.467000", "153230.470000", "153230.473000", "153230.476000", "153230.479000", "153230.482000", "153310.386000", "153310.389000", "153310.392000", "153310.395000", "153310.398000", "153310.401000", "153310.404000", "153310.407000", "153310.410000", "153310.412000", "153310.416000", "153310.419000", "153310.421000", "153310.424000", "153310.427000", "153310.430000", "153310.433000", "153310.436000", "153310.439000", "153310.442000", "153310.445000", "153310.448000", "153310.451000", "153310.454000", "153310.457000", "153310.460000", "153310.463000", "153310.466000", "153310.469000", "153310.472000", "153310.475000", "153310.478000", "153350.386000", "153350.389000", "153350.392000", "153350.395000", "153350.398000", "153350.401000", "153350.404000", "153350.407000", "153350.410000", "153350.413000", "153350.416000", "153350.418000", "153350.421000", "153350.424000", "153350.427000", "153350.430000", "153350.433000", "153350.436000", "153350.439000", "153350.442000", "153350.445000", "153350.448000", "153350.451000", "153350.454000", "153350.457000", "153350.459000", "153350.462000", "153350.465000", "153350.468000", "153350.471000", "153350.474000", "153350.477000", "153430.386000", "153430.389000", "153430.392000", "153430.395000", "153430.398000", "153430.401000", "153430.404000", "153430.407000", "153430.410000", "153430.413000", "153430.416000", "153430.419000", "153430.422000", "153430.425000", "153430.428000", "153430.430000", "153430.433000", "153430.436000", "153430.439000", "153430.442000", "153430.445000", "153430.448000", "153430.451000", "153430.454000", "153430.457000", "153430.460000", "153430.463000", "153430.466000", "153430.469000", "153430.472000", "153430.475000", "153430.478000", "153448.885000", "153448.890000", "153448.894000", "153448.898000", "153448.902000", "153448.905000", "153448.908000", "153448.912000", "153448.915000", "153448.918000", "153448.921000", "153448.925000", "153448.928000", "153448.932000", "153448.935000"],
      "InstanceCreationTime": ["152730.391000", "152730.394000", "152730.397000", "152730.400000", "152730.403000", "152730.411000", "152730.414000", "152730.417000", "152730.420000", "152730.423000", "152730.426000", "152730.429000", "152730.432000", "152730.448000", "152730.451000", "152730.454000", "152730.457000", "152730.459000", "152730.464000", "152730.467000", "152730.470000", "152730.473000", "152730.475000", "152730.478000", "152730.481000", "152730.484000", "152730.487000", "152730.490000", "152730.493000", "152730.496000", "152730.499000", "152730.502000", "152730.505000", "152810.385000", "152810.388000", "152810.391000", "152810.394000", "152810.397000", "152810.400000", "152810.403000", "152810.406000", "152810.409000", "152810.412000", "152810.415000", "152810.418000", "152810.421000", "152810.423000", "152810.431000", "152810.434000", "152810.437000", "152810.440000", "152810.443000", "152810.446000", "152810.449000", "152810.452000", "152810.455000", "152810.458000", "152810.461000", "152810.464000", "152810.467000", "152810.470000", "152810.472000", "152810.475000", "152810.479000", "152810.481000", "152850.386000", "152850.389000", "152850.392000", "152850.395000", "152850.398000", "152850.401000", "152850.404000", "152850.407000", "152850.410000", "152850.412000", "152850.415000", "152850.418000", "152850.421000", "152850.424000", "152850.427000", "152850.430000", "152850.433000", "152850.436000", "152850.439000", "152850.442000", "152850.445000", "152850.448000", "152850.451000", "152850.453000", "152850.456000", "152850.459000", "152850.462000", "152850.470000", "152850.473000", "152850.476000", "152850.479000", "152850.482000", "152910.386000", "152910.389000", "152910.392000", "152910.395000", "152910.398000", "152910.401000", "152910.404000", "152910.407000", "152910.410000", "152910.413000", "152910.416000", "152910.419000", "152910.421000", "152910.424000", "152910.427000", "152910.430000", "152950.386000", "152950.389000", "152950.392000", "152950.395000", "152950.398000", "152950.401000", "152950.404000", "152950.407000", "152950.410000", "152950.412000", "152950.416000", "152950.418000", "152950.421000", "152950.424000", "152950.427000", "152950.430000", "152950.433000", "152950.436000", "152950.439000", "152950.442000", "152950.445000", "152950.448000", "152950.451000", "152950.454000", "152950.457000", "152950.460000", "152950.463000", "152950.466000", "152950.469000", "152950.472000", "152950.475000", "152950.478000", "153030.385000", "153030.388000", "153030.391000", "153030.394000", "153030.397000", "153030.400000", "153030.403000", "153030.406000", "153030.409000", "153030.412000", "153030.415000", "153030.418000", "153030.421000", "153030.424000", "153030.427000", "153030.430000", "153030.433000", "153030.436000", "153030.439000", "153030.442000", "153030.444000", "153030.447000", "153030.450000", "153030.453000", "153030.456000", "153030.459000", "153030.462000", "153030.465000", "153030.468000", "153030.471000", "153030.474000", "153030.477000", "153110.386000", "153110.389000", "153110.392000", "153110.395000", "153110.398000", "153110.401000", "153110.404000", "153110.407000", "153110.410000", "153110.413000", "153110.416000", "153110.419000", "153110.422000", "153110.425000", "153110.428000", "153110.431000", "153110.434000", "153110.437000", "153110.440000", "153110.443000", "153110.446000", "153110.449000", "153110.452000", "153110.455000", "153110.457000", "153110.460000", "153110.463000", "153110.466000", "153110.469000", "153110.472000", "153110.475000", "153110.478000", "153150.397000", "153150.400000", "153150.404000", "153150.406000", "153150.409000", "153150.412000", "153150.415000", "153150.418000", "153150.421000", "153150.424000", "153150.427000", "153150.430000", "153150.433000", "153150.436000", "153150.439000", "153150.442000", "153150.445000", "153150.448000", "153150.451000", "153150.454000", "153150.457000", "153150.460000", "153150.463000", "153150.466000", "153150.469000", "153150.472000", "153150.475000", "153150.478000", "153150.481000", "153150.483000", "153150.486000", "153150.489000", "153230.385000", "153230.388000", "153230.391000", "153230.394000", "153230.397000", "153230.400000", "153230.403000", "153230.406000", "153230.409000", "153230.412000", "153230.415000", "153230.418000", "153230.421000", "153230.424000", "153230.427000", "153230.430000", "153230.433000", "153230.435000", "153230.443000", "153230.446000", "153230.449000", "153230.452000", "153230.455000", "153230.458000", "153230.461000", "153230.464000", "153230.467000", "153230.470000", "153230.473000", "153230.476000", "153230.479000", "153230.482000", "153310.386000", "153310.389000", "153310.392000", "153310.395000", "153310.398000", "153310.401000", "153310.404000", "153310.407000", "153310.410000", "153310.412000", "153310.416000", "153310.419000", "153310.421000", "153310.424000", "153310.427000", "153310.430000", "153310.433000", "153310.436000", "153310.439000", "153310.442000", "153310.445000", "153310.448000", "153310.451000", "153310.454000", "153310.457000", "153310.460000", "153310.463000", "153310.466000", "153310.469000", "153310.472000", "153310.475000", "153310.478000", "153350.386000", "153350.389000", "153350.392000", "153350.395000", "153350.398000", "153350.401000", "153350.404000", "153350.407000", "153350.410000", "153350.413000", "153350.416000", "153350.418000", "153350.421000", "153350.424000", "153350.427000", "153350.430000", "153350.433000", "153350.436000", "153350.439000", "153350.442000", "153350.445000", "153350.448000", "153350.451000", "153350.454000", "153350.457000", "153350.459000", "153350.462000", "153350.465000", "153350.468000", "153350.471000", "153350.474000", "153350.477000", "153430.386000", "153430.389000", "153430.392000", "153430.395000", "153430.398000", "153430.401000", "153430.404000", "153430.407000", "153430.410000", "153430.413000", "153430.416000", "153430.419000", "153430.422000", "153430.425000", "153430.428000", "153430.430000", "153430.433000", "153430.436000", "153430.439000", "153430.442000", "153430.445000", "153430.448000", "153430.451000", "153430.454000", "153430.457000", "153430.460000", "153430.463000", "153430.466000", "153430.469000", "153430.472000", "153430.475000", "153430.478000", "153448.885000", "153448.890000", "153448.894000", "153448.898000", "153448.902000", "153448.905000", "153448.908000", "153448.912000", "153448.915000", "153448.918000", "153448.921000", "153448.925000", "153448.928000", "153448.932000", "153448.935000"],
      "InstanceNumber": [1, 2, 3, 4, 5, 6, 7, 8, 9, 10, 11, 12, 13, 14, 15, 16, 17, 18, 19, 20, 21, 22, 23, 24, 25, 26, 27, 28, 29, 30, 31, 32, 33, 34, 35, 36, 37, 38, 39, 40, 41, 42, 43, 44, 45, 46, 47, 48, 49, 50, 51, 52, 53, 54, 55, 56, 57, 58, 59, 60, 61, 62, 63, 64, 65, 66, 67, 68, 69, 70, 71, 72, 73, 74, 75, 76, 77, 78, 79, 80, 81, 82, 83, 84, 85, 86, 87, 88, 89, 90, 91, 92, 93, 94, 95, 96, 97, 98, 99, 100, 101, 102, 103, 104, 105, 106, 107, 108, 109, 110, 111, 112, 113, 114, 115, 116, 117, 118, 119, 120, 121, 122, 123, 124, 125, 126, 127, 128, 129, 130, 131, 132, 133, 134, 135, 136, 137, 138, 139, 140, 141, 142, 143, 144, 145, 146, 147, 148, 149, 150, 151, 152, 153, 154, 155, 156, 157, 158, 159, 160, 161, 162, 163, 164, 165, 166, 167, 168, 169, 170, 171, 172, 173, 174, 175, 176, 177, 178, 179, 180, 181, 182, 183, 184, 185, 186, 187, 188, 189, 190, 191, 192, 193, 194, 195, 196, 197, 198, 199, 200, 201, 202, 203, 204, 205, 206, 207, 208, 209, 210, 211, 212, 213, 214, 215, 216, 217, 218, 219, 220, 221, 222, 223, 224, 225, 226, 227, 228, 229, 230, 231, 232, 233, 234, 235, 236, 237, 238, 239, 240, 241, 242, 243, 244, 245, 246, 247, 248, 249, 250, 251, 252, 253, 254, 255, 256, 257, 258, 259, 260, 261, 262, 263, 264, 265, 266, 267, 268, 269, 270, 271, 272, 273, 274, 275, 276, 277, 278, 279, 280, 281, 282, 283, 284, 285, 286, 287, 288, 289, 290, 291, 292, 293, 294, 295, 296, 297, 298, 299, 300, 301, 302, 303, 304, 305, 306, 307, 308, 309, 310, 311, 312, 313, 314, 315, 316, 317, 318, 319, 320, 321, 322, 323, 324, 325, 326, 327, 328, 329, 330, 331, 332, 333, 334, 335, 336, 337, 338, 339, 340, 341, 342, 343, 344, 345, 346, 347, 348, 349, 350, 351, 352, 353, 354, 355, 356, 357, 358, 359, 360, 361, 362, 363, 364, 365, 366, 367, 368, 369, 370, 371, 372, 373, 374, 375, 376, 377, 378, 379, 380, 381, 382, 383, 384],
