{
    "AcquisitionMatrixPE": 80,
    "AcquisitionNumber": 1,
    "AcquisitionTime": "15:35:5.162500",
    "BaseResolution": 80,
    "BodyPartExamined": "BRAIN",
    "ConsistencyInfo": "N4_VE11C_LATEST_20160120",
    "ConversionSoftware": "dcm2niix",
    "ConversionSoftwareVersion": "v1.0.20190720  GCC5.4.0",
    "DeviceSerialNumber": "67007",
    "DwellTime": 2.15e-05,
    "EchoNumber": 2,
    "EchoTime": 0.00738,
    "EchoTime1": 0.00492,
    "EchoTime2": 0.00738,
    "FlipAngle": 60,
    "ImageOrientationPatientDICOM": [
        0.994449,
        -0.105223,
        0,
        0.105223,
        0.994449,
        0
    ],
    "ImageType": [
        "ORIGINAL",
        "PRIMARY",
        "P",
        "ND"
    ],
    "ImagingFrequency": 123.22,
    "InPlanePhaseEncodingDirectionDICOM": "COL",
    "InstitutionAddress": "Perth_Drive_100_London_Ontario_CA_N6A_5K8",
    "InstitutionName": "Robarts_Research_Institute",
    "InstitutionalDepartmentName": "CFMM",
    "MRAcquisitionType": "2D",
    "MagneticFieldStrength": 3,
    "Manufacturer": "Siemens",
    "ManufacturersModelName": "Prisma_fit",
    "Modality": "MR",
    "PartialFourier": 1,
    "PatientPosition": "HFS",
    "PercentPhaseFOV": 100,
    "PhaseEncodingDirection": "j-",
    "PhaseEncodingSteps": 80,
    "PhaseResolution": 1,
    "PixelBandwidth": 290,
    "ProcedureStepDescription": "Burneo_EpLinkPhase3",
    "ProtocolName": "gre_field_mapping",
    "PulseSequenceDetails": "%SiemensSeq%_gre_field_mapping",
    "ReceiveCoilActiveElements": "HEA;HEP",
    "ReceiveCoilName": "Head_32",
    "ReconMatrixPE": 80,
    "RepetitionTime": 0.5,
    "SAR": 0.148069,
    "ScanningSequence": "GR",
    "SequenceName": "_fm2d2r",
    "SequenceVariant": "SP",
    "SeriesDescription": "gre_field_mapping",
    "SeriesNumber": 18,
    "ShimSetting": [
        5205,
        -6384,
        -3978,
        126,
        136,
        285,
        -22,
        -17
    ],
    "SliceThickness": 3,
    "SliceTiming": [
        0.25,
        0,
        0.26087,
        0.0108696,
        0.271739,
        0.0217391,
        0.282609,
        0.0326087,
        0.293478,
        0.0434783,
        0.304348,
        0.0543478,
        0.315217,
        0.0652174,
        0.326087,
        0.076087,
        0.336957,
        0.0869565,
        0.347826,
        0.0978261,
        0.358696,
        0.108696,
        0.369565,
        0.119565,
        0.380435,
        0.130435,
        0.391304,
        0.141304,
        0.402174,
        0.152174,
        0.413043,
        0.163043,
        0.423913,
        0.173913,
        0.434783,
        0.184783,
        0.445652,
        0.195652,
        0.456522,
        0.206522,
        0.467391,
        0.217391,
        0.478261,
        0.228261,
        0.48913,
        0.23913
    ],
    "SoftwareVersions": "syngo_MR_E11",
    "SpacingBetweenSlices": 3.75,
    "StationName": "MRC35368",
    "TxRefAmp": 285.725,
    "dcmmeta_affine": [
        [
            -2.9833459854125977,
            0.31566816568374634,
            0.0,
            111.44879913330078
        ],
        [
            0.31566816568374634,
            2.9833459854125977,
            0.0,
            -98.41146850585938
        ],
        [
            0.0,
            0.0,
            3.75,
            -124.35362243652344
        ],
        [
            0.0,
            0.0,
            0.0,
            1.0
        ]
    ],
    "dcmmeta_reorient_transform": [
        [
            0.0,
            -1.0,
            0.0,
            79.0
        ],
        [
            1.0,
            0.0,
            0.0,
            0.0
        ],
        [
            0.0,
            0.0,
            -1.0,
            45.0
        ],
        [
            0.0,
            0.0,
            0.0,
            1.0
        ]
    ],
    "dcmmeta_shape": [
        80,
        80,
        46
    ],
    "dcmmeta_slice_dim": 2,
    "dcmmeta_version": 0.6,
    "global": {
        "const": {
            "AcquisitionMatrix": [
                80,
                0,
                0,
                80
            ],
            "AcquisitionNumber": 1,
            "AngioFlag": "N",
            "BitsAllocated": 16,
            "BitsStored": 12,
            "BodyPartExamined": "BRAIN",
            "Columns": 80,
            "EchoNumbers": 2,
            "EchoTime": 7.38,
            "EchoTrainLength": 0,
            "FlipAngle": 60.0,
            "HighBit": 11,
            "ImageOrientationPatient": [
                0.99444868055301,
                -0.1052227244771,
                0.0,
                0.10522272447708,
                0.99444868055301,
                0.0
            ],
            "ImageType": [
                "ORIGINAL",
                "PRIMARY",
                "P",
                "ND"
            ],
            "ImagedNucleus": "1H",
            "ImagingFrequency": 123.21958,
            "InPlanePhaseEncodingDirection": "COL",
            "MRAcquisitionType": "2D",
            "MagneticFieldStrength": 3.0,
            "Manufacturer": "SIEMENS",
            "ManufacturerModelName": "Prisma_fit",
            "Modality": "MR",
            "NumberOfAverages": 1.0,
            "NumberOfPhaseEncodingSteps": 80,
            "PercentPhaseFieldOfView": 100.0,
            "PercentSampling": 100.0,
            "PerformedProcedureStepStartTime": "142553.264000",
            "PhotometricInterpretation": "MONOCHROME2",
            "PixelBandwidth": 290.0,
            "PixelRepresentation": 0,
            "PixelSpacing": [
                3.0,
                3.0
            ],
            "ProtocolName": "gre_field_mapping",
            "RepetitionTime": 500.0,
            "RescaleIntercept": -4096.0,
            "RescaleSlope": 2.0,
            "RescaleType": "US",
            "Rows": 80,
            "SAR": 0.14806928953808,
            "SamplesPerPixel": 1,
            "ScanningSequence": "GR",
            "SequenceName": "*fm2d2r",
            "SequenceVariant": "SP",
            "SeriesDescription": "gre_field_mapping",
            "SeriesNumber": 18,
            "SeriesTime": "153626.149000",
            "SliceThickness": 3.0,
            "SoftwareVersions": "syngo MR E11",
            "SpacingBetweenSlices": 3.75,
            "SpecificCharacterSet": "ISO_IR 100",
            "StudyID": "1",
            "StudyTime": "142553.203000",
            "TransmitCoilName": "Body",
            "VariableFlipAngleFlag": "N",
            "WindowCenterWidthExplanation": "Algo1",
            "dBdt": 0.0
        },
        "slices": {
            "AcquisitionTime": [
                "153505.162500",
                "153504.912500",
                "153505.172500",
                "153504.922500",
                "153505.182500",
                "153504.932500",
                "153505.195000",
                "153504.945000",
                "153505.205000",
                "153504.955000",
                "153505.215000",
                "153504.965000",
                "153505.227500",
                "153504.977500",
                "153505.237500",
                "153504.987500",
                "153505.247500",
                "153504.997500",
                "153505.260000",
                "153505.010000",
                "153505.270000",
                "153505.020000",
                "153505.280000",
                "153505.030000",
                "153505.292500",
                "153505.042500",
                "153505.302500",
                "153505.052500",
                "153505.312500",
                "153505.065000",
                "153505.325000",
                "153505.075000",
                "153505.335000",
                "153505.085000",
                "153505.345000",
                "153505.097500",
                "153505.357500",
                "153505.107500",
                "153505.367500",
                "153505.117500",
                "153505.380000",
                "153505.130000",
                "153505.390000",
                "153505.140000",
                "153505.400000",
                "153505.150000"
            ],
            "ContentTime": [
                "153626.244000",
                "153626.152000",
                "153626.246000",
                "153626.154000",
                "153626.249000",
                "153626.164000",
                "153626.255000",
                "153626.167000",
                "153626.257000",
                "153626.169000",
                "153626.259000",
                "153626.172000",
                "153626.261000",
                "153626.176000",
                "153626.263000",
                "153626.179000",
                "153626.265000",
                "153626.181000",
                "153626.267000",
                "153626.184000",
                "153626.269000",
                "153626.187000",
                "153626.272000",
                "153626.189000",
                "153626.274000",
                "153626.192000",
                "153626.276000",
                "153626.194000",
                "153626.278000",
                "153626.213000",
                "153626.281000",
                "153626.215000",
                "153626.283000",
                "153626.217000",
                "153626.285000",
                "153626.219000",
                "153626.287000",
                "153626.221000",
                "153626.290000",
                "153626.231000",
                "153626.292000",
                "153626.235000",
                "153626.294000",
                "153626.238000",
                "153626.297000",
                "153626.241000"
            ],
            "CsaImage.GSWDDataType": [
                "measured",
                "predicted",
                "measured",
                "predicted",
                "measured",
                "predicted",
                "measured",
                "predicted",
                "measured",
                "predicted",
                "measured",
                "predicted",
                "measured",
                "predicted",
                "measured",
                "predicted",
                "measured",
                "predicted",
                "measured",
                "predicted",
                "measured",
                "predicted",
                "measured",
                "predicted",
                "measured",
                "predicted",
                "measured",
                "predicted",
                "measured",
                "measured",
                "measured",
                "measured",
                "measured",
                "measured",
                "measured",
                "measured",
                "measured",
                "measured",
                "measured",
                "measured",
                "measured",
                "measured",
                "measured",
                "measured",
                "measured",
                "measured"
            ],
            "CsaImage.ICE_Dims": [
                "X_2_1_1_1_1_1_24_1_1_1_1_103",
                "X_2_1_1_1_1_1_1_1_1_2_1_103",
                "X_2_1_1_1_1_1_25_1_1_3_1_103",
                "X_2_1_1_1_1_1_2_1_1_4_1_103",
                "X_2_1_1_1_1_1_26_1_1_5_1_103",
                "X_2_1_1_1_1_1_3_1_1_6_1_103",
                "X_2_1_1_1_1_1_27_1_1_7_1_103",
                "X_2_1_1_1_1_1_4_1_1_8_1_103",
                "X_2_1_1_1_1_1_28_1_1_9_1_103",
                "X_2_1_1_1_1_1_5_1_1_10_1_103",
                "X_2_1_1_1_1_1_29_1_1_11_1_103",
                "X_2_1_1_1_1_1_6_1_1_12_1_103",
                "X_2_1_1_1_1_1_30_1_1_13_1_103",
                "X_2_1_1_1_1_1_7_1_1_14_1_103",
                "X_2_1_1_1_1_1_31_1_1_15_1_103",
                "X_2_1_1_1_1_1_8_1_1_16_1_103",
                "X_2_1_1_1_1_1_32_1_1_17_1_103",
                "X_2_1_1_1_1_1_9_1_1_18_1_103",
                "X_2_1_1_1_1_1_33_1_1_19_1_103",
                "X_2_1_1_1_1_1_10_1_1_20_1_103",
                "X_2_1_1_1_1_1_34_1_1_21_1_103",
                "X_2_1_1_1_1_1_11_1_1_22_1_103",
                "X_2_1_1_1_1_1_35_1_1_23_1_103",
                "X_2_1_1_1_1_1_12_1_1_24_1_103",
                "X_2_1_1_1_1_1_36_1_1_25_1_103",
                "X_2_1_1_1_1_1_13_1_1_26_1_103",
                "X_2_1_1_1_1_1_37_1_1_27_1_103",
                "X_2_1_1_1_1_1_14_1_1_28_1_103",
                "X_2_1_1_1_1_1_38_1_1_29_1_103",
                "X_2_1_1_1_1_1_15_1_1_30_1_103",
                "X_2_1_1_1_1_1_39_1_1_31_1_103",
                "X_2_1_1_1_1_1_16_1_1_32_1_103",
                "X_2_1_1_1_1_1_40_1_1_33_1_103",
                "X_2_1_1_1_1_1_17_1_1_34_1_103",
                "X_2_1_1_1_1_1_41_1_1_35_1_103",
                "X_2_1_1_1_1_1_18_1_1_36_1_103",
                "X_2_1_1_1_1_1_42_1_1_37_1_103",
                "X_2_1_1_1_1_1_19_1_1_38_1_103",
                "X_2_1_1_1_1_1_43_1_1_39_1_103",
                "X_2_1_1_1_1_1_20_1_1_40_1_103",
                "X_2_1_1_1_1_1_44_1_1_41_1_103",
                "X_2_1_1_1_1_1_21_1_1_42_1_103",
                "X_2_1_1_1_1_1_45_1_1_43_1_103",
                "X_2_1_1_1_1_1_22_1_1_44_1_103",
                "X_2_1_1_1_1_1_46_1_1_45_1_103",
                "X_2_1_1_1_1_1_23_1_1_46_1_103"
            ],
            "CsaImage.ProtocolSliceNumber": [
                0,
                1,
                2,
                3,
                4,
                5,
                6,
                7,
                8,
                9,
                10,
                11,
                12,
                13,
                14,
                15,
                16,
                17,
                18,
                19,
                20,
                21,
                22,
                23,
                24,
                25,
                26,
                27,
                28,
                29,
                30,
                31,
                32,
                33,
                34,
                35,
                36,
                37,
                38,
                39,
                40,
                41,
                42,
                43,
                44,
                45
            ],
            "CsaImage.RFSWDDataType": [
                "measured",
                "predicted",
                "measured",
                "predicted",
                "measured",
                "predicted",
                "measured",
                "predicted",
                "measured",
                "predicted",
                "measured",
                "predicted",
                "measured",
                "predicted",
                "measured",
                "predicted",
                "measured",
                "predicted",
                "measured",
                "predicted",
                "measured",
                "predicted",
                "measured",
                "predicted",
                "measured",
                "predicted",
                "measured",
                "measured",
                "measured",
                "measured",
                "measured",
                "measured",
                "measured",
                "measured",
                "measured",
                "measured",
                "measured",
                "measured",
                "measured",
                "measured",
                "measured",
                "measured",
                "measured",
                "measured",
                "measured",
                "measured"
            ],
            "CsaImage.SlicePosition_PCS": [
                [
                    -136.38658303,
                    -137.27287057,
                    -124.35362244
                ],
                [
                    -136.38658303,
                    -137.27287057,
                    -120.60362244
                ],
                [
                    -136.38658303,
                    -137.27287057,
                    -116.85362244
                ],
                [
                    -136.38658303,
                    -137.27287057,
                    -113.10362244
                ],
                [
                    -136.38658303,
                    -137.27287057,
                    -109.35362244
                ],
                [
                    -136.38658303,
                    -137.27287057,
                    -105.60362244
                ],
                [
                    -136.38658303,
                    -137.27287057,
                    -101.85362244
                ],
                [
                    -136.38658303,
                    -137.27287057,
                    -98.10362244
                ],
                [
                    -136.38658303,
                    -137.27287057,
                    -94.35362244
                ],
                [
                    -136.38658303,
                    -137.27287057,
                    -90.60362244
                ],
                [
                    -136.38658303,
                    -137.27287057,
                    -86.85362244
                ],
                [
                    -136.38658303,
                    -137.27287057,
                    -83.10362244
                ],
                [
                    -136.38658303,
                    -137.27287057,
                    -79.35362244
                ],
                [
                    -136.38658303,
                    -137.27287057,
                    -75.60362244
                ],
                [
                    -136.38658303,
                    -137.27287057,
                    -71.85362244
                ],
                [
                    -136.38658303,
                    -137.27287057,
                    -68.10362244
                ],
                [
                    -136.38658303,
                    -137.27287057,
                    -64.35362244
                ],
                [
                    -136.38658303,
                    -137.27287057,
                    -60.60362244
                ],
                [
                    -136.38658303,
                    -137.27287057,
                    -56.85362244
                ],
                [
                    -136.38658303,
                    -137.27287057,
                    -53.10362244
                ],
                [
                    -136.38658303,
                    -137.27287057,
                    -49.35362244
                ],
                [
                    -136.38658303,
                    -137.27287057,
                    -45.60362244
                ],
                [
                    -136.38658303,
                    -137.27287057,
                    -41.85362244
                ],
                [
                    -136.38658303,
                    -137.27287057,
                    -38.10362244
                ],
                [
                    -136.38658303,
                    -137.27287057,
                    -34.35362244
                ],
                [
                    -136.38658303,
                    -137.27287057,
                    -30.60362434
                ],
                [
                    -136.38658303,
                    -137.27287057,
                    -26.85362434
                ],
                [
                    -136.38658303,
                    -137.27287057,
                    -23.10362434
                ],
                [
                    -136.38658303,
                    -137.27287057,
                    -19.35362434
                ],
                [
                    -136.38658303,
                    -137.27287057,
                    -15.60362434
                ],
                [
                    -136.38658303,
                    -137.27287057,
                    -11.85362434
                ],
                [
                    -136.38658303,
                    -137.27287057,
                    -8.10362434
                ],
                [
                    -136.38658303,
                    -137.27287057,
                    -4.35362434
                ],
                [
                    -136.38658303,
                    -137.27287057,
                    -0.60362428
                ],
                [
                    -136.38658303,
                    -137.27287057,
                    3.14637566
                ],
                [
                    -136.38658303,
                    -137.27287057,
                    6.89637566
                ],
                [
                    -136.38658303,
                    -137.27287057,
                    10.64637566
                ],
                [
                    -136.38658303,
                    -137.27287057,
                    14.39637566
                ],
                [
                    -136.38658303,
                    -137.27287057,
                    18.14637566
                ],
                [
                    -136.38658303,
                    -137.27287057,
                    21.89637566
                ],
                [
                    -136.38658303,
                    -137.27287057,
                    25.64637566
                ],
                [
                    -136.38658303,
                    -137.27287057,
                    29.39637566
                ],
                [
                    -136.38658303,
                    -137.27287057,
                    33.14637756
                ],
                [
                    -136.38658303,
                    -137.27287057,
                    36.89637756
                ],
                [
                    -136.38658303,
                    -137.27287057,
                    40.64637756
                ],
                [
                    -136.38658303,
                    -137.27287057,
                    44.39637756
                ]
            ],
            "CsaImage.TimeAfterStart": [
                0.7525,
                0.5025,
                0.7625,
                0.5125,
                0.7725,
                0.5225,
                0.785,
                0.535,
                0.795,
                0.545,
                0.805,
                0.555,
                0.8175,
                0.5675,
                0.8275,
                0.5775,
                0.8375,
                0.5875,
                0.85,
                0.6,
                0.86,
                0.61,
                0.87,
                0.62,
                0.8825,
                0.6325,
                0.8925,
                0.6425,
                0.9025,
                0.655,
                0.915,
                0.665,
                0.925,
                0.675,
                0.935,
                0.6875,
                0.9475,
                0.6975,
                0.9575,
                0.7075,
                0.97,
                0.72,
                0.98,
                0.73,
                0.99,
                0.74
            ],
            "ImagePositionPatient": [
                [
                    -136.38658302698,
                    -137.27287057323,
                    -124.35362243652
                ],
                [
                    -136.38658302698,
                    -137.27287057323,
                    -120.60362243652
                ],
                [
                    -136.38658302698,
                    -137.27287057323,
                    -116.85362243652
                ],
                [
                    -136.38658302698,
                    -137.27287057323,
                    -113.10362243652
                ],
                [
                    -136.38658302698,
                    -137.27287057323,
                    -109.35362243652
                ],
                [
                    -136.38658302698,
                    -137.27287057323,
                    -105.60362243652
                ],
                [
                    -136.38658302698,
                    -137.27287057323,
                    -101.85362243652
                ],
                [
                    -136.38658302698,
                    -137.27287057323,
                    -98.103622436523
                ],
                [
                    -136.38658302698,
                    -137.27287057323,
                    -94.353622436523
                ],
                [
                    -136.38658302698,
                    -137.27287057323,
                    -90.603622436523
                ],
                [
                    -136.38658302698,
                    -137.27287057323,
                    -86.853622436523
                ],
                [
                    -136.38658302698,
                    -137.27287057323,
                    -83.103622436523
                ],
                [
                    -136.38658302698,
                    -137.27287057323,
                    -79.353622436523
                ],
                [
                    -136.38658302698,
                    -137.27287057323,
                    -75.603622436523
                ],
                [
                    -136.38658302698,
                    -137.27287057323,
                    -71.853622436523
                ],
                [
                    -136.38658302698,
                    -137.27287057323,
                    -68.103622436523
                ],
                [
                    -136.38658302698,
                    -137.27287057323,
                    -64.353622436523
                ],
                [
                    -136.38658302698,
                    -137.27287057323,
                    -60.603622436523
                ],
                [
                    -136.38658302698,
                    -137.27287057323,
                    -56.853622436523
                ],
                [
                    -136.38658302698,
                    -137.27287057323,
                    -53.103622436523
                ],
                [
                    -136.38658302698,
                    -137.27287057323,
                    -49.353622436523
                ],
                [
                    -136.38658302698,
                    -137.27287057323,
                    -45.603622436523
                ],
                [
                    -136.38658302698,
                    -137.27287057323,
                    -41.853622436523
                ],
                [
                    -136.38658302698,
                    -137.27287057323,
                    -38.103622436523
                ],
                [
                    -136.38658302698,
                    -137.27287057323,
                    -34.353622436523
                ],
                [
                    -136.38658302698,
                    -137.27287057323,
                    -30.603624343872
                ],
                [
                    -136.38658302698,
                    -137.27287057323,
                    -26.853624343872
                ],
                [
                    -136.38658302698,
                    -137.27287057323,
                    -23.103624343872
                ],
                [
                    -136.38658302698,
                    -137.27287057323,
                    -19.353624343872
                ],
                [
                    -136.38658302698,
                    -137.27287057323,
                    -15.603624343872
                ],
                [
                    -136.38658302698,
                    -137.27287057323,
                    -11.853624343872
                ],
                [
                    -136.38658302698,
                    -137.27287057323,
                    -8.1036243438721
                ],
                [
                    -136.38658302698,
                    -137.27287057323,
                    -4.3536243438721
                ],
                [
                    -136.38658302698,
                    -137.27287057323,
                    -0.6036242842674
                ],
                [
                    -136.38658302698,
                    -137.27287057323,
                    3.1463756561279
                ],
                [
                    -136.38658302698,
                    -137.27287057323,
                    6.8963756561279
                ],
                [
                    -136.38658302698,
                    -137.27287057323,
                    10.646375656128
                ],
                [
                    -136.38658302698,
                    -137.27287057323,
                    14.396375656128
                ],
                [
                    -136.38658302698,
                    -137.27287057323,
                    18.146375656128
                ],
                [
                    -136.38658302698,
                    -137.27287057323,
                    21.896375656128
                ],
                [
                    -136.38658302698,
                    -137.27287057323,
                    25.646375656128
                ],
                [
                    -136.38658302698,
                    -137.27287057323,
                    29.396375656128
                ],
                [
                    -136.38658302698,
                    -137.27287057323,
                    33.146377563477
                ],
                [
                    -136.38658302698,
                    -137.27287057323,
                    36.896377563477
                ],
                [
                    -136.38658302698,
